Raman_shift_cm-1,bareAPC_mean,bareAPC_sd,polyAPC_mean,polyAPC_sd,"(baseline-corrected, raw intensity units)"
49.28,54.7,66.0,16.4,17.3
52.51,54.7,67.1,17.2,19.1
55.74,54.6,68.2,17.6,20.7
58.97,54.6,69.4,17.9,22.1
62.20,54.6,70.5,18.2,23.5
65.42,54.6,71.6,18.4,24.8
68.64,54.5,72.8,18.9,26.0
71.87,54.5,73.9,19.9,27.0
75.09,54.5,75.0,21.8,27.9
78.31,54.4,76.2,24.5,28.7
81.53,54.6,77.2,27.8,29.5
84.75,55.3,78.2,31.5,30.4
87.97,56.1,79.4,35.0,31.2
91.18,57.2,81.0,37.9,32.0
94.40,58.6,82.9,39.9,32.8
97.61,60.3,85.3,40.8,33.7
100.82,63.5,87.0,40.6,34.5
104.04,67.7,88.3,39.5,35.4
107.25,71.8,89.8,37.6,36.3
110.46,75.9,91.3,35.3,37.2
113.66,79.8,92.4,33.0,38.1
116.87,83.2,93.0,31.7,38.2
120.08,86.1,92.7,30.7,38.1
123.28,88.4,91.7,29.8,37.9
126.48,90.2,89.9,28.9,37.6
129.69,91.7,87.5,27.8,37.2
132.89,92.7,84.8,26.7,36.8
136.09,93.1,82.0,25.8,36.4
139.29,92.9,78.9,25.6,36.1
142.48,92.2,75.7,25.9,36.6
145.68,91.2,72.4,29.9,36.3
148.87,91.0,69.1,37.7,36.0
152.07,92.8,66.1,49.6,35.7
155.26,98.6,63.3,66.3,35.0
158.45,110.5,60.8,87.5,33.8
161.64,130.9,58.2,112.6,31.9
164.83,161.0,55.0,140.0,29.4
168.02,200.6,50.8,167.7,26.4
171.21,246.3,45.5,193.2,23.5
174.39,291.5,39.8,214.0,20.8
177.58,327.8,35.0,227.9,18.7
180.76,347.1,31.9,233.6,17.5
183.94,344.7,30.0,231.0,17.2
187.12,321.0,28.6,221.3,17.8
190.30,282.0,27.5,206.4,19.2
193.48,237.8,26.4,188.8,21.0
196.66,198.8,25.0,171.1,23.1
199.84,172.3,22.7,155.2,25.1
203.01,160.6,20.5,141.9,26.8
206.19,160.0,20.9,130.9,28.1
209.36,163.0,24.5,121.1,28.9
212.53,161.5,28.9,110.9,29.3
215.70,149.8,32.1,99.3,29.5
218.87,127.1,33.2,85.8,29.4
222.04,97.6,33.2,71.3,29.2
225.20,68.2,33.6,56.9,28.7
228.37,45.7,35.8,43.7,28.1
231.53,35.3,38.5,32.7,27.4
234.70,36.2,41.1,24.5,26.6
237.86,40.2,45.1,20.5,24.6
241.02,43.4,47.8,18.4,23.4
244.18,44.2,47.9,18.4,23.1
247.34,45.2,46.6,20.7,23.7
250.50,52.7,48.0,27.8,23.5
253.66,77.3,54.8,39.9,22.8
256.81,136.3,56.1,55.8,22.1
259.97,221.1,60.9,74.5,21.7
263.12,321.2,68.0,93.9,21.4
266.27,419.3,74.6,111.3,21.2
269.42,496.7,77.8,124.1,21.0
272.57,539.5,75.9,130.1,20.6
275.72,543.4,69.0,128.5,20.1
278.87,514.3,59.1,119.8,19.4
282.01,465.5,49.3,105.7,18.7
285.16,411.4,41.9,88.7,18.0
288.30,363.1,37.9,71.4,17.5
291.44,325.3,37.0,55.8,17.2
294.59,296.7,37.6,43.3,17.1
297.73,273.2,38.1,34.1,17.1
300.87,250.2,37.5,27.9,17.1
304.00,225.1,35.6,24.0,16.9
307.14,197.5,33.0,21.4,16.6
310.28,168.5,30.0,19.5,16.1
313.41,139.8,27.3,17.6,15.4
316.54,113.0,25.0,15.5,14.5
319.68,89.1,22.8,13.3,13.0
322.81,68.3,20.6,10.9,11.2
325.94,51.0,18.5,8.2,9.3
329.07,37.0,16.5,5.2,7.4
332.20,26.6,14.7,3.4,4.8
335.32,20.1,13.1,1.7,2.4
338.45,17.9,11.9,0.3,0.4
341.57,20.2,11.0,0.0,0.0
344.69,27.4,10.6,0.0,0.0
347.82,38.7,10.6,0.0,0.0
350.94,53.3,11.0,0.8,0.6
354.06,69.3,11.3,5.5,1.8
357.18,84.9,11.6,12.3,1.7
360.29,98.4,12.0,18.9,2.2
363.41,109.1,13.1,24.8,3.0
366.52,117.1,15.4,29.2,3.9
369.64,123.1,19.3,31.9,4.9
372.75,128.9,24.2,32.9,6.0
375.87,135.8,29.6,32.4,7.1
378.98,144.3,34.8,31.0,8.1
382.09,153.8,39.2,29.2,9.2
385.19,162.6,42.1,27.7,10.2
388.30,168.3,43.1,27.0,11.3
391.41,168.5,42.0,27.4,12.2
394.51,161.9,39.2,29.0,13.2
397.62,149.2,34.8,31.9,14.2
400.72,133.1,30.1,35.9,15.2
403.82,117.5,26.4,40.8,16.1
406.92,106.2,23.9,46.4,17.0
410.02,101.9,22.2,52.2,17.9
413.12,104.8,21.0,57.8,18.6
416.22,113.5,20.0,62.5,19.2
419.31,124.4,19.7,66.0,19.6
422.40,133.4,20.3,67.9,19.9
425.50,137.1,21.8,68.1,20.2
428.59,133.5,24.5,66.6,20.4
431.68,122.4,28.3,63.7,20.6
434.77,105.6,32.9,59.7,20.8
437.86,86.3,37.7,55.1,21.0
440.95,68.4,42.0,50.5,21.2
444.04,54.4,45.6,46.3,21.4
447.12,47.4,46.8,42.9,21.7
450.21,44.7,48.3,40.8,22.1
453.29,43.6,50.5,40.2,22.4
456.37,43.1,52.6,41.1,22.9
459.45,42.5,54.1,43.6,23.3
462.53,41.4,54.8,47.7,23.8
465.61,39.7,54.7,53.2,24.3
468.69,38.0,53.7,59.6,24.6
471.77,37.0,52.3,66.6,25.0
474.84,36.4,51.5,73.4,25.3
477.92,36.6,51.8,79.8,25.7
480.99,38.2,54.0,85.3,26.1
484.06,41.6,58.8,89.8,26.5
487.13,50.1,64.6,93.6,26.9
490.20,66.9,69.3,96.5,27.3
493.27,92.4,70.8,98.8,27.7
496.34,120.8,72.3,100.5,28.2
499.41,149.8,73.9,101.7,28.6
502.47,177.0,75.5,102.9,29.1
505.54,200.5,77.3,104.4,29.7
508.60,218.8,79.4,106.7,30.2
511.66,231.2,81.7,110.1,30.8
514.72,237.9,84.6,114.8,31.1
517.78,240.4,87.8,120.4,31.1
520.84,241.1,91.0,126.6,30.9
523.90,242.4,93.7,132.6,30.4
526.96,245.7,95.7,137.6,29.8
530.01,251.1,96.7,141.0,29.1
533.06,256.7,96.8,142.4,28.5
536.12,260.1,96.6,141.5,27.9
539.17,258.5,96.8,138.6,27.3
542.22,250.5,97.9,134.3,26.8
545.27,237.1,99.8,129.3,26.3
548.32,220.8,102.5,124.6,25.8
551.37,205.7,105.5,120.9,25.2
554.41,196.4,108.2,118.9,24.6
557.46,196.0,110.0,118.8,24.0
560.50,205.8,111.0,120.8,23.4
563.55,224.4,111.5,124.7,22.9
566.59,248.7,111.7,130.4,22.6
569.63,275.0,111.9,137.4,22.5
572.67,300.6,111.9,145.2,22.6
575.71,324.1,111.1,153.5,22.7
578.74,344.8,109.4,161.8,22.7
581.78,362.5,106.5,170.1,22.7
584.82,376.1,102.8,178.4,22.7
587.85,383.7,99.0,186.7,22.7
590.88,383.8,95.5,195.3,22.8
593.92,375.7,92.6,204.6,22.9
596.95,360.2,90.3,214.8,23.1
599.98,340.2,88.3,226.2,23.2
603.01,319.3,86.3,238.9,23.1
606.03,300.9,83.9,252.6,22.7
609.06,287.1,80.7,267.1,22.1
612.09,278.3,76.2,281.2,21.2
615.11,272.7,70.4,294.0,20.4
618.13,267.8,63.4,303.9,19.8
621.15,261.2,55.7,309.7,19.4
624.17,251.9,47.9,310.6,19.2
627.20,241.5,40.6,306.5,19.2
630.21,233.8,34.3,298.4,19.4
633.23,233.9,29.6,288.3,19.6
636.25,245.9,27.1,278.7,20.0
639.26,271.8,27.1,272.2,20.5
642.28,311.0,29.0,271.2,21.2
645.29,360.9,31.7,277.1,22.0
648.30,418.4,34.6,290.2,23.1
651.31,480.0,37.9,309.5,24.4
654.32,541.7,42.1,332.8,25.9
657.33,598.1,47.8,357.3,27.4
660.34,642.0,54.6,379.4,28.7
663.35,665.4,61.3,396.0,29.6
666.35,662.2,66.6,404.5,30.1
669.36,630.4,69.8,403.9,30.1
672.36,573.7,71.3,394.2,29.7
675.36,500.1,72.2,376.9,29.1
678.36,419.6,73.6,354.5,28.3
681.36,341.9,76.0,329.7,27.6
684.36,274.1,79.2,305.3,27.0
687.36,220.9,82.3,282.9,26.5
690.36,184.4,84.6,263.7,26.2
693.35,165.2,85.9,247.9,26.0
696.35,161.9,86.5,235.1,25.7
699.34,171.0,86.8,224.6,25.4
702.33,186.8,87.0,215.6,25.0
705.32,202.5,86.8,207.6,24.6
708.31,211.9,85.7,200.1,24.1
711.30,210.1,83.5,192.7,23.5
714.29,195.4,80.3,185.4,22.9
717.28,168.3,76.5,177.9,22.3
720.26,131.7,72.5,170.3,21.8
723.25,89.1,68.5,162.3,21.2
726.23,52.2,57.1,153.8,20.6
729.22,28.1,39.8,144.9,20.0
732.20,14.7,20.9,135.5,19.2
735.18,5.2,7.3,125.7,18.5
738.16,0.4,0.6,115.3,17.8
741.14,0.9,1.3,104.2,16.9
744.11,6.3,8.9,92.6,15.9
747.09,15.5,21.9,81.0,14.9
750.06,31.7,35.6,70.4,13.7
753.04,67.9,38.1,61.6,12.5
756.01,109.4,35.3,55.8,11.4
758.98,148.4,32.1,53.3,10.4
761.95,183.2,28.8,54.1,9.5
764.92,212.5,25.6,57.1,8.6
767.89,235.1,22.8,61.3,7.7
770.86,250.1,20.3,65.5,7.1
773.82,255.9,18.3,68.6,6.7
776.79,251.1,16.5,69.9,6.5
779.75,234.3,14.7,69.0,6.4
782.72,204.9,12.7,65.9,6.5
785.68,163.4,10.4,61.0,6.5
788.64,111.6,7.9,54.4,6.5
791.60,52.6,5.2,46.6,6.6
794.56,0.0,0.0,37.9,6.7
797.51,0.0,0.0,28.4,6.7
800.47,0.0,0.0,18.3,6.4
803.43,0.0,0.0,8.4,6.0
806.38,0.0,0.0,2.4,3.4
809.33,0.0,0.0,0.0,0.0
812.29,0.0,0.0,0.0,0.0
815.24,0.0,0.0,0.0,0.0
818.19,0.0,0.0,0.0,0.0
821.13,0.0,0.0,0.0,0.0
824.08,14.8,12.5,0.0,0.0
827.03,60.1,28.4,0.0,0.0
829.98,118.3,32.7,0.0,0.0
832.92,181.1,37.3,0.0,0.0
835.86,250.1,41.5,0.0,0.0
838.81,325.9,45.1,0.0,0.0
841.75,407.7,48.2,0.0,0.0
844.69,493.2,50.8,0.0,0.0
847.63,579.3,53.4,0.0,0.0
850.57,662.9,56.5,0.0,0.0
853.50,741.8,60.5,0.0,0.0
856.44,815.9,65.7,0.0,0.0
859.38,887.7,72.3,0.0,0.0
862.31,962.3,80.1,0.0,0.0
865.24,1046.8,89.0,1.5,2.1
868.17,1150.1,98.8,33.0,8.2
871.10,1281.4,109.5,82.6,9.7
874.03,1450.4,121.5,148.8,12.1
876.96,1667.0,135.3,236.6,15.4
879.89,1941.9,151.9,352.1,19.6
882.82,2288.0,172.1,502.4,24.8
885.74,2721.0,197.1,694.6,30.9
888.67,3261.4,227.3,935.0,37.7
891.59,3932.6,261.3,1227.4,44.7
894.51,4756.9,294.3,1571.2,51.3
897.43,5745.2,317.9,1959.0,56.7
900.35,6882.0,322.3,2375.0,60.4
903.27,8108.9,300.7,2794.2,61.9
906.19,9317.7,254.1,3183.4,61.2
909.11,10358.0,194.2,3504.7,59.1
912.02,11067.1,140.2,3721.9,56.5
914.94,11310.8,111.4,3806.5,54.2
917.85,11024.6,118.4,3744.4,53.2
920.76,10236.2,158.4,3539.6,53.3
923.68,9059.9,216.6,3214.0,53.9
926.59,7664.0,272.2,2802.9,54.2
929.49,6227.1,307.1,2348.5,53.2
932.40,4895.7,313.0,1892.0,50.2
935.31,3762.0,292.2,1467.2,45.1
938.22,2860.3,254.4,1096.9,38.4
941.12,2180.9,211.3,792.1,31.4
944.03,1689.2,171.6,554.0,25.6
946.93,1341.6,139.8,376.3,22.6
949.83,1096.9,116.6,249.2,22.5
952.73,920.6,100.7,161.5,24.2
955.63,786.3,90.5,103.0,26.2
958.53,675.5,84.5,65.1,27.9
961.43,577.7,81.3,41.8,29.0
964.32,490.0,79.7,33.7,24.3
967.22,416.3,79.4,33.4,23.9
970.12,367.8,80.9,44.3,27.5
973.01,363.2,86.2,79.0,25.3
975.90,429.5,97.3,140.9,22.7
978.79,600.0,112.8,236.1,20.2
981.68,905.6,125.6,367.7,18.2
984.57,1359.3,125.5,532.8,17.0
987.46,1938.4,106.5,721.2,16.2
990.35,2574.8,75.2,915.5,15.8
993.23,3163.0,59.9,1094.3,15.3
996.12,3588.3,73.0,1236.4,14.3
999.00,3766.4,77.8,1326.8,12.7
1001.89,3677.0,61.5,1360.5,11.0
1004.77,3374.1,58.6,1345.1,11.6
1007.65,2969.6,99.4,1298.2,15.1
1010.53,2594.6,142.1,1242.9,19.6
1013.41,2356.2,162.0,1201.4,23.3
1016.28,2307.9,154.3,1189.1,25.0
1019.16,2441.8,125.7,1210.9,24.8
1022.04,2700.4,88.5,1261.3,23.1
1024.91,3000.8,56.3,1326.3,20.7
1027.79,3259.0,39.6,1388.1,18.5
1030.66,3410.3,36.6,1429.7,17.1
1033.53,3418.7,35.4,1438.9,16.8
1036.40,3278.9,33.5,1410.0,17.4
1039.27,3011.5,35.1,1344.3,18.4
1042.14,2654.2,41.7,1248.3,19.3
1045.01,2251.4,49.4,1131.9,19.7
1047.87,1846.4,54.3,1006.1,19.4
1050.74,1473.9,54.8,880.8,18.4
1053.60,1157.0,50.5,763.8,16.8
1056.46,906.0,42.5,660.5,15.0
1059.33,719.5,32.8,574.0,13.1
1062.19,587.8,24.3,505.2,11.2
1065.05,496.1,20.0,453.3,9.5
1067.91,429.6,20.4,416.6,8.0
1070.76,375.5,22.5,392.4,6.6
1073.62,325.3,23.8,377.4,5.5
1076.48,275.0,23.8,368.3,4.6
1079.33,224.5,22.6,362.0,3.8
1082.19,175.9,20.8,356.0,3.3
1085.04,132.2,19.2,348.4,3.0
1087.89,95.5,18.0,337.9,2.7
1090.74,65.8,17.7,324.0,2.4
1093.59,40.9,17.8,306.5,2.2
1096.44,19.2,15.4,285.7,1.9
1099.29,4.1,5.9,262.1,1.6
1102.13,0.0,0.0,236.4,1.3
1104.98,0.0,0.0,209.5,1.1
1107.82,0.0,0.0,182.2,1.1
1110.67,0.0,0.0,155.6,1.2
1113.51,0.0,0.0,130.2,1.5
1116.35,0.0,0.0,106.5,1.9
1119.19,0.0,0.0,84.6,2.5
1122.03,0.0,0.0,64.3,3.1
1124.87,0.0,0.0,45.2,3.7
1127.70,0.0,0.0,27.2,4.2
1130.54,0.0,0.0,10.3,4.5
1133.38,0.0,0.0,0.0,0.0
1136.21,0.0,0.0,0.0,0.0
1139.04,6.9,9.8,0.0,0.0
1141.87,61.5,21.3,0.0,0.0
1144.71,142.5,23.1,0.0,0.0
1147.54,235.9,24.0,0.0,0.0
1150.36,337.0,24.4,0.0,0.0
1153.19,439.2,25.1,0.0,0.0
1156.02,536.7,26.9,0.0,0.0
1158.85,626.5,30.1,3.1,2.6
1161.67,709.0,34.7,7.6,5.5
1164.49,788.0,39.9,11.7,7.0
1167.32,868.5,44.6,15.8,6.9
1170.14,954.1,47.8,19.6,6.8
1172.96,1044.9,49.4,24.2,6.8
1175.78,1137.7,49.8,30.1,6.9
1178.60,1226.6,49.6,37.4,7.2
1181.41,1304.9,49.4,45.4,7.6
1184.23,1366.5,49.8,53.0,8.1
1187.05,1407.2,50.8,59.0,8.5
1189.86,1425.6,52.8,62.4,8.8
1192.68,1423.6,56.0,63.3,8.9
1195.49,1406.6,60.8,62.9,8.7
1198.30,1384.3,67.1,63.7,8.2
1201.11,1369.3,74.3,69.0,7.3
1203.92,1375.3,81.4,82.5,6.2
1206.73,1414.6,87.1,107.4,4.9
1209.54,1494.9,90.1,145.6,3.7
1212.34,1617.1,90.1,197.8,2.9
1215.15,1775.2,87.5,262.8,2.9
1217.95,1956.8,83.4,338.0,3.6
1220.75,2145.9,79.3,419.3,4.6
1223.56,2326.4,76.4,501.7,5.6
1226.36,2485.2,75.5,580.0,6.7
1229.16,2613.8,76.3,649.0,7.8
1231.96,2709.1,78.2,704.4,8.9
1234.76,2771.5,79.9,743.5,10.0
1237.55,2803.5,80.3,764.8,11.1
1240.35,2806.7,78.9,768.8,12.0
1243.14,2781.0,75.7,756.6,12.7
1245.94,2724.8,71.4,730.3,13.0
1248.73,2636.1,66.7,692.1,13.1
1251.52,2514.1,62.5,644.0,12.9
1254.31,2361.1,59.1,588.1,12.5
1257.10,2182.4,56.5,526.5,12.1
1259.89,1986.4,54.3,462.0,11.8
1262.68,1783.1,51.9,397.5,11.5
1265.47,1582.7,48.9,336.3,11.3
1268.25,1394.1,44.9,281.2,11.0
1271.04,1223.4,39.8,234.5,10.6
1273.82,1074.2,34.0,197.0,10.1
1276.60,946.9,27.6,168.6,9.6
1279.39,840.2,21.1,148.3,9.2
1282.17,751.2,14.6,134.1,8.9
1284.95,676.0,8.4,124.2,8.7
1287.73,610.1,3.0,116.5,8.5
1290.50,549.3,2.9,109.5,8.3
1293.28,489.6,5.9,101.8,8.0
1296.06,428.7,7.5,92.9,7.6
1298.83,366.6,7.9,82.8,7.2
1301.61,305.3,7.6,72.0,6.8
1304.38,247.6,7.3,61.2,6.4
1307.15,196.4,7.6,51.4,6.0
1309.92,153.0,8.5,42.9,5.5
1312.69,117.3,9.7,35.5,4.9
1315.46,88.0,10.9,28.8,4.3
1318.23,63.4,12.0,21.8,3.7
1320.99,42.2,12.7,14.0,3.2
1323.76,23.2,13.4,4.9,2.7
1326.53,10.3,7.4,0.0,0.0
1329.29,0.1,0.2,0.0,0.0
1332.05,0.0,0.0,0.0,0.0
1334.81,0.0,0.0,0.0,0.0
1337.58,0.0,0.0,0.0,0.0
1340.33,0.0,0.0,0.0,0.0
1343.09,0.0,0.0,0.0,0.0
1345.85,0.0,0.0,0.0,0.0
1348.61,0.0,0.0,0.0,0.0
1351.36,0.0,0.0,0.0,0.0
1354.12,0.0,0.0,0.0,0.0
1356.87,0.0,0.0,0.0,0.0
1359.62,0.8,1.2,6.4,1.1
1362.38,46.2,7.3,27.4,1.4
1365.13,101.7,6.9,48.9,1.8
1367.88,151.1,6.5,68.7,2.3
1370.62,189.2,6.0,84.5,2.8
1373.37,214.2,6.7,94.6,3.2
1376.12,227.9,9.6,98.1,3.5
1378.87,234.8,13.5,95.0,3.8
1381.61,239.9,16.8,86.6,3.9
1384.35,246.7,18.9,74.7,4.1
1387.10,256.5,19.8,61.6,4.3
1389.84,268.2,20.0,49.5,4.6
1392.58,279.3,20.5,40.3,5.0
1395.32,287.9,21.9,35.2,5.4
1398.06,293.7,24.3,34.3,6.0
1400.80,298.2,27.3,37.2,6.6
1403.53,304.2,30.4,42.7,7.2
1406.27,314.4,32.9,49.8,7.7
1409.00,330.3,34.8,57.2,8.1
1411.74,352.3,36.5,64.3,8.3
1414.47,379.9,38.7,71.4,8.3
1417.20,413.4,42.3,79.1,8.1
1419.93,455.5,48.0,89.2,7.7
1422.66,511.4,55.8,103.9,7.1
1425.39,589.9,65.1,126.2,6.5
1428.12,701.0,75.2,159.3,6.0
1430.84,853.7,84.8,206.3,5.9
1433.57,1053.9,92.5,269.2,6.3
1436.30,1301.5,97.3,348.7,7.0
1439.02,1588.5,98.9,443.2,7.9
1441.74,1899.4,97.5,548.8,8.6
1444.46,2211.4,94.7,659.6,9.3
1447.18,2499.9,92.5,768.3,9.9
1449.91,2743.0,93.2,867.3,10.6
1452.62,2926.4,97.7,950.4,11.4
1455.34,3046.8,106.2,1013.3,12.5
1458.06,3111.6,117.0,1054.8,13.8
1460.77,3135.9,128.1,1076.8,15.3
1463.49,3138.1,137.5,1083.5,16.9
1466.20,3133.9,144.0,1081.0,18.4
1468.92,3135.2,147.2,1075.6,19.7
1471.63,3147.2,147.7,1072.6,20.5
1474.34,3170.0,146.0,1075.5,21.0
1477.05,3198.9,142.6,1085.0,21.1
1479.76,3225.7,137.7,1099.0,20.7
1482.47,3239.8,131.6,1113.0,20.1
1485.17,3228.8,124.6,1121.4,19.5
1487.88,3180.6,117.7,1118.3,18.8
1490.58,3085.3,111.7,1099.6,18.3
1493.29,2937.0,107.7,1062.7,18.0
1495.99,2736.7,106.2,1007.8,17.9
1498.69,2492.8,106.9,937.3,17.7
1501.40,2219.6,108.7,854.9,17.5
1504.10,1935.3,110.5,765.0,17.0
1506.79,1658.2,110.9,672.1,16.3
1509.49,1404.1,108.9,580.0,15.4
1512.19,1183.1,104.3,491.8,14.5
1514.89,998.8,97.7,410.0,13.7
1517.58,849.4,90.1,336.7,12.9
1520.28,729.4,82.6,273.6,12.4
1522.97,631.2,76.4,221.9,12.0
1525.66,548.8,72.3,182.4,11.9
1528.35,478.2,70.2,155.3,11.9
1531.04,418.6,69.5,140.3,12.0
1533.73,370.9,69.4,136.0,12.3
1536.42,336.5,69.3,140.7,12.7
1539.11,316.3,68.9,152.3,13.3
1541.80,310.2,68.0,168.4,14.0
1544.48,317.3,66.9,186.7,14.9
1547.16,336.1,65.6,205.0,15.8
1549.85,364.8,64.2,221.4,16.7
1552.53,401.1,62.9,233.8,17.6
1555.21,442.9,62.3,240.9,18.5
1557.89,488.9,63.3,241.5,19.5
1560.57,540.7,66.6,235.2,20.4
1563.25,602.7,71.4,222.5,21.5
1565.93,681.5,75.9,204.6,22.6
1568.61,781.7,77.1,183.5,23.8
1571.28,901.0,72.9,161.3,24.8
1573.96,1026.6,63.4,140.0,25.8
1576.63,1136.7,51.3,121.1,26.6
1579.30,1205.7,41.1,105.3,27.3
1581.98,1214.0,36.9,93.0,27.8
1584.65,1155.3,40.1,83.9,28.2
1587.32,1039.9,49.3,77.5,28.6
1589.98,891.2,60.2,73.2,29.0
1592.65,737.9,68.5,70.6,29.6
1595.32,604.3,71.3,69.4,30.2
1597.99,504.1,68.1,69.1,30.8
1600.65,439.2,60.6,69.0,31.3
1603.32,402.0,51.5,68.2,31.4
1605.98,380.5,43.3,66.0,31.1
1608.64,363.3,37.3,61.6,30.4
1611.30,342.5,34.0,55.1,29.3
1613.96,315.1,32.5,46.7,28.1
1616.62,281.7,32.0,37.2,26.9
1619.28,245.0,31.4,27.5,25.7
1621.94,207.7,30.2,20.9,22.1
1624.59,172.1,28.4,15.3,19.0
1627.25,139.3,26.5,11.5,16.2
1629.90,109.8,24.8,9.5,13.4
1632.56,84.3,23.6,8.2,11.6
1635.21,64.2,22.7,7.6,10.7
1637.86,50.7,21.7,7.7,10.9
1640.51,44.8,20.4,8.6,12.1
1643.16,46.3,18.7,11.7,13.6
1645.81,54.0,16.9,16.9,15.6
1648.46,65.9,15.1,26.7,14.7
1651.11,79.9,13.6,37.6,13.8
1653.75,94.2,12.5,48.6,12.8
1656.40,107.8,11.6,58.8,11.8
1659.04,119.9,10.8,67.7,10.8
1661.68,129.8,9.7,74.8,9.8
1664.32,136.5,8.6,79.7,8.8
1666.96,139.4,7.5,82.2,7.7
1669.61,137.6,6.6,82.3,6.7
1672.24,131.3,6.1,79.8,5.7
1674.88,121.0,5.8,74.8,4.7
1677.52,108.3,5.7,67.3,4.0
1680.16,95.0,5.5,57.8,3.5
1682.79,82.8,5.0,46.9,3.5
1685.42,72.7,4.2,35.4,3.8
1688.06,65.0,3.1,24.3,4.2
1690.69,58.9,1.9,14.6,4.5
1693.32,53.4,0.9,7.3,4.6
1695.95,46.9,1.1,3.7,4.0
1698.58,38.3,2.0,3.2,3.7
1701.21,26.5,2.8,4.6,4.3
1703.84,10.9,3.3,8.8,4.6
1706.46,0.0,0.0,14.4,4.7
1709.09,0.0,0.0,19.7,4.7
1711.72,0.0,0.0,23.8,4.7
1714.34,0.0,0.0,26.2,4.6
1716.96,0.0,0.0,26.8,4.5
1719.58,0.0,0.0,26.4,4.4
1722.20,0.0,0.0,25.8,4.3
1724.82,0.0,0.0,25.7,4.2
1727.44,0.0,0.0,26.7,4.1
1730.06,0.0,0.0,29.0,4.1
1732.68,0.0,0.0,32.2,4.1
1735.30,0.0,0.0,35.9,4.1
1737.91,0.0,0.0,39.6,4.1
1740.52,0.0,0.0,42.6,4.2
1743.14,0.0,0.0,44.4,4.2
1745.75,0.0,0.0,44.8,4.2
1748.36,0.4,0.6,43.7,4.2
1750.97,2.1,3.0,41.3,4.2
1753.58,3.9,5.6,37.7,4.2
1756.19,5.4,7.7,33.2,4.3
1758.80,6.3,8.9,28.1,4.3
1761.40,7.8,8.3,22.7,4.5
1764.01,11.9,4.7,16.8,4.6
1766.61,15.7,1.2,10.7,4.7
1769.22,20.8,1.8,5.3,3.9
1771.82,28.2,4.6,1.6,1.3
1774.42,39.5,7.4,0.0,0.0
1777.02,55.8,10.5,0.0,0.0
1779.62,77.2,14.0,0.0,0.0
1782.22,102.9,17.9,0.0,0.0
1784.82,130.5,22.1,1.7,2.4
1787.42,157.4,26.3,5.3,5.1
1790.01,180.9,30.1,9.8,8.2
1792.61,199.2,33.5,15.1,9.8
1795.21,211.4,36.6,19.7,10.3
1797.80,217.8,39.5,22.2,10.7
1800.39,219.2,42.6,22.2,11.1
1802.98,216.3,45.8,20.1,11.5
1805.57,209.8,49.2,16.6,11.9
1808.16,200.0,52.7,12.5,12.5
1810.75,187.4,56.1,9.5,12.4
1813.34,172.5,59.3,8.4,11.8
1815.93,156.5,62.4,8.1,11.5
1818.51,140.9,65.5,8.4,11.9
1821.10,126.9,68.7,9.0,12.7
1823.68,115.7,72.0,9.8,13.9
1826.27,107.8,75.5,10.6,15.1
1828.85,105.9,75.5,11.3,16.0
1831.43,107.1,76.4,11.7,16.5
1834.01,110.5,78.9,11.8,16.7
1836.59,116.2,83.0,11.7,16.6
1839.17,123.9,88.4,11.7,16.5
1841.74,132.9,94.8,12.0,16.9
1844.32,145.7,97.2,12.7,18.0
1846.90,159.7,97.1,14.3,20.0
1849.47,173.2,95.6,18.9,21.5
1852.04,185.4,92.8,26.4,22.3
1854.62,195.8,89.5,36.1,22.2
1857.19,204.5,86.6,46.1,22.1
1859.76,212.9,83.7,55.5,21.9
1862.33,221.8,81.0,63.6,21.7
1864.90,231.8,78.5,69.6,21.5
1867.47,243.0,76.2,73.2,21.4
1870.04,255.1,74.2,74.3,21.2
1872.60,267.2,72.3,73.3,21.1
1875.17,278.2,70.6,70.6,21.0
1877.73,287.1,69.3,67.0,21.0
1880.30,292.4,68.4,63.4,20.9
1882.86,293.1,67.6,60.5,21.0
1885.42,288.4,66.8,58.9,21.0
1887.98,278.6,65.6,58.7,21.2
1890.54,264.5,64.0,59.5,21.4
1893.10,248.1,62.2,60.7,21.6
1895.66,231.5,60.5,61.6,21.9
1898.21,216.7,59.2,61.6,22.1
1900.77,204.8,58.3,60.2,22.3
1903.32,196.1,57.8,57.6,22.5
1905.88,190.1,57.2,54.3,22.6
1908.43,186.1,56.3,51.3,22.9
1910.98,184.1,55.0,48.7,23.2
1913.54,184.5,53.5,47.1,23.5
1916.09,188.0,52.1,46.7,23.8
1918.64,195.0,51.2,47.3,23.9
1921.18,204.5,50.9,48.7,23.7
1923.73,214.8,51.1,50.3,23.3
1926.28,222.9,51.4,51.7,22.7
1928.82,226.2,51.2,52.5,22.0
1931.37,222.8,50.3,52.3,21.3
1933.91,212.9,48.7,51.1,20.7
1936.46,198.0,46.6,49.5,20.1
1939.00,181.0,44.4,48.4,19.5
1941.54,165.2,42.5,48.4,19.0
1944.08,153.1,41.0,50.4,18.6
1946.62,146.6,40.0,54.5,18.2
1949.16,145.9,39.4,60.8,17.9
1951.70,150.7,39.2,68.9,17.5
1954.23,159.3,39.1,78.0,17.1
1956.77,169.7,39.2,87.2,16.7
1959.30,179.4,39.1,95.4,16.2
1961.84,186.2,38.6,101.8,15.8
1964.37,188.6,37.5,105.4,15.5
1966.90,186.2,35.6,106.1,15.2
1969.43,180.5,33.1,103.7,14.9
1971.96,174.0,30.5,98.7,14.7
1974.49,169.4,28.2,91.7,14.6
1977.02,168.7,27.1,83.7,14.5
1979.55,172.2,27.1,75.6,14.4
1982.08,178.5,28.1,68.3,14.4
1984.60,184.7,29.5,62.4,14.3
1987.13,188.3,30.5,58.2,14.2
1989.65,187.8,30.8,55.6,14.2
1992.17,183.8,30.4,54.7,14.2
1994.69,177.8,29.9,54.8,14.2
1997.22,172.3,29.9,55.5,14.2
1999.74,169.0,30.7,56.1,14.3
2002.26,168.5,32.4,55.9,14.4
2004.77,169.9,34.6,54.4,14.6
2007.29,171.5,37.2,51.6,14.9
2009.81,171.4,39.7,47.7,15.3
2012.32,168.1,41.7,43.3,15.7
2014.84,160.9,43.0,38.9,16.1
2017.35,150.2,43.7,35.1,16.6
2019.86,137.8,43.9,32.3,17.0
2022.38,126.1,44.1,30.6,17.4
2024.89,117.9,44.4,30.1,17.8
2027.40,115.0,44.9,30.7,18.3
2029.91,119.1,45.8,32.0,18.7
2032.42,130.4,47.3,33.9,19.3
2034.92,147.7,49.2,36.0,19.8
2037.43,168.7,51.3,37.9,20.3
2039.93,190.7,53.2,39.2,20.8
2042.44,211.5,54.6,39.7,21.0
2044.94,229.4,55.0,39.2,20.9
2047.44,243.6,54.0,37.8,20.7
2049.95,254.6,51.9,35.7,20.2
2052.45,263.0,49.1,33.5,19.7
2054.95,269.2,46.2,31.8,19.2
2057.45,272.4,43.5,31.2,18.7
2059.95,271.4,41.3,32.1,18.2
2062.44,264.4,39.4,35.0,17.7
2064.94,249.8,37.1,39.7,17.2
2067.44,226.8,34.2,45.8,16.6
2069.93,196.8,30.7,52.5,15.9
2072.42,162.7,27.1,58.7,15.1
2074.92,127.6,23.6,63.1,14.4
2077.41,94.7,20.8,64.4,13.6
2079.90,65.7,18.5,61.8,13.0
2082.39,41.2,16.7,55.1,12.4
2084.88,20.6,14.8,44.8,11.9
2087.37,7.8,6.1,32.1,11.6
2089.85,0.0,0.0,18.7,11.3
2092.34,0.0,0.0,9.3,6.9
2094.83,0.0,0.0,2.6,2.7
2097.31,0.0,0.0,0.0,0.0
2099.80,0.0,0.0,0.0,0.0
2102.28,6.2,4.9,0.0,0.0
2104.76,24.9,6.9,0.0,0.0
2107.24,44.2,9.1,2.5,1.8
2109.72,62.3,11.4,7.3,3.5
2112.20,79.0,13.6,14.2,2.3
2114.68,95.0,15.8,20.1,1.1
2117.16,111.5,17.8,24.4,0.4
2119.63,129.9,19.2,26.8,1.4
2122.11,150.2,19.6,27.1,2.6
2124.58,171.1,19.0,25.7,3.6
2127.06,189.4,17.5,22.7,4.5
2129.53,201.8,15.9,18.8,5.3
2132.00,205.2,14.9,14.5,5.9
2134.48,198.2,14.9,10.3,6.4
2136.95,181.6,15.9,6.9,6.8
2139.42,158.8,17.5,5.4,6.4
2141.88,134.2,19.0,4.8,6.5
2144.35,112.4,19.9,5.2,6.9
2146.82,96.7,19.9,6.4,7.7
2149.28,88.4,19.1,8.0,8.7
2151.75,87.0,17.8,9.6,10.0
2154.21,91.1,16.5,10.5,10.1
2156.68,98.4,15.2,13.7,10.9
2159.14,106.7,14.0,19.2,11.6
2161.60,113.9,12.8,26.0,12.2
2164.06,118.1,11.7,33.1,12.8
2166.52,117.4,10.6,39.3,13.5
2168.98,110.6,10.0,43.8,14.2
2171.44,97.6,10.1,45.7,14.7
2173.90,79.9,11.0,45.2,14.1
2176.35,60.6,12.7,45.2,14.9
2178.80,44.5,14.6,45.5,15.5
2181.26,36.2,16.0,45.9,16.0
2183.71,39.2,16.3,46.3,16.5
2186.17,54.3,15.2,46.7,17.0
2188.62,79.2,13.0,47.2,17.6
2191.07,109.2,10.4,47.7,18.1
2193.52,138.5,8.4,48.1,18.6
2195.97,162.0,7.3,48.6,19.1
2198.41,176.9,7.3,49.1,19.6
2200.86,183.1,7.9,49.7,20.1
2203.31,182.6,8.8,50.2,20.7
2205.75,179.0,9.6,50.8,21.2
2208.20,175.7,9.9,51.4,21.7
2210.64,175.0,10.1,51.9,22.3
2213.08,178.0,10.2,52.3,22.8
2215.53,184.1,10.8,52.5,23.2
2217.97,192.4,11.8,52.9,23.6
2220.41,201.6,13.4,53.9,24.0
2222.85,210.6,15.3,56.0,24.4
2225.29,218.5,17.3,59.3,24.9
2227.72,224.8,19.4,64.0,25.4
2230.16,229.2,21.6,69.5,26.0
2232.59,231.8,24.1,75.1,26.6
2235.03,232.8,26.7,80.0,27.0
2237.46,233.2,29.4,83.9,27.3
2239.90,234.0,32.0,86.4,27.5
2242.33,235.9,34.3,87.5,27.7
2244.76,239.3,36.2,87.6,27.7
2247.19,243.2,37.6,87.0,27.9
2249.62,245.7,38.8,86.3,28.2
2252.05,244.6,40.1,85.6,27.9
2254.48,237.8,41.6,86.6,28.1
2256.90,224.1,43.5,89.2,28.5
2259.33,203.9,45.9,93.0,28.9
2261.75,178.6,48.9,97.3,29.2
2264.18,151.2,51.9,101.3,29.5
2266.60,124.9,54.3,104.7,30.0
2269.02,103.5,55.3,106.2,30.6
2271.45,90.1,54.2,105.2,30.3
2273.87,87.0,50.7,103.2,30.4
2276.29,94.7,45.0,101.1,31.2
2278.71,111.0,38.3,97.8,31.5
2281.12,132.4,31.8,93.7,31.6
2283.54,154.5,26.6,89.9,31.7
2285.96,174.0,22.8,87.1,32.3
2288.37,190.0,20.1,85.3,32.9
2290.79,204.0,18.1,83.9,32.7
2293.20,219.2,17.1,84.5,32.5
2295.61,238.1,18.1,88.3,33.5
2298.03,260.2,21.1,93.3,34.2
2300.44,282.8,25.5,98.2,34.2
2302.85,301.7,30.0,103.3,34.3
2305.26,313.3,33.9,109.1,34.6
2307.66,315.6,36.7,115.3,35.0
2310.07,309.8,38.4,121.4,35.1
2312.48,298.9,39.3,127.8,35.2
2314.89,286.7,39.4,134.3,36.0
2317.29,275.3,38.7,139.3,36.7
2319.69,266.3,37.2,141.9,36.7
2322.10,259.4,35.3,143.1,36.7
2324.50,253.9,33.1,143.9,36.6
2326.90,248.6,30.9,145.3,35.9
2329.30,242.8,28.4,147.6,34.9
2331.70,236.8,25.6,150.9,33.7
2334.10,232.0,22.7,155.1,32.5
2336.50,230.3,20.2,160.0,31.5
2338.90,233.6,18.1,165.1,30.8
2341.29,242.4,16.6,170.2,30.3
2343.69,255.7,15.4,175.1,29.9
2346.08,271.8,14.5,179.5,29.5
2348.48,287.8,13.4,183.1,29.0
2350.87,300.8,12.2,185.4,28.6
2353.26,309.2,10.6,186.3,28.2
2355.65,313.0,9.2,185.8,27.9
2358.04,313.6,8.6,183.7,27.5
2360.43,313.2,9.2,180.3,27.1
2362.82,314.1,10.6,175.9,26.8
2365.21,318.1,11.8,171.1,26.4
2367.59,325.3,12.5,166.3,26.1
2369.98,334.3,13.0,161.8,25.9
2372.36,342.9,13.6,158.1,25.6
2374.75,348.9,14.7,155.4,25.3
2377.13,351.2,16.5,154.1,25.0
2379.51,349.8,19.0,154.3,24.7
2381.89,346.2,22.0,156.1,24.5
2384.28,342.5,24.9,159.4,24.3
2386.66,340.9,27.4,163.9,24.1
2389.03,343.0,29.3,169.0,24.0
2391.41,349.2,30.5,174.1,23.9
2393.79,358.4,31.2,179.0,23.7
2396.17,368.7,31.8,183.6,23.2
2398.54,377.7,32.8,188.0,22.6
2400.92,383.8,34.3,192.1,21.6
2403.29,386.4,36.4,196.2,20.5
2405.66,386.1,39.0,200.0,19.3
2408.03,384.6,41.8,203.6,18.2
2410.41,383.9,44.5,206.9,17.5
2412.78,385.6,46.9,209.7,16.9
2415.15,391.0,49.1,212.1,16.5
2417.52,400.6,51.2,214.0,16.2
2419.88,414.2,53.2,215.4,16.1
2422.25,431.7,55.3,216.5,16.1
2424.62,452.4,57.5,217.3,16.1
2426.98,475.5,59.5,217.9,16.0
2429.34,500.0,61.2,218.4,15.5
2431.71,524.7,62.7,218.7,14.6
2434.07,548.5,64.0,219.0,13.5
2436.43,570.0,65.1,219.3,12.3
2438.79,588.3,66.3,220.2,11.1
2441.15,602.7,67.9,222.0,10.0
2443.51,613.3,69.8,224.9,9.1
2445.87,621.1,71.9,228.7,8.2
2448.23,627.3,73.9,233.4,7.4
2450.58,633.3,75.8,238.7,6.7
2452.94,639.9,77.4,244.2,6.1
2455.30,647.5,78.3,249.7,5.7
2457.65,655.8,78.6,254.9,5.4
2460.00,664.2,78.4,259.1,5.4
2462.35,672.1,77.9,262.1,5.7
2464.71,679.0,76.9,263.3,6.1
2467.06,684.2,75.7,262.6,6.7
2469.41,686.9,74.3,260.1,7.5
2471.76,686.0,72.8,256.1,8.3
2474.10,680.5,71.5,251.3,8.8
2476.45,669.8,70.6,246.5,8.8
2478.80,654.3,70.3,242.2,8.0
2481.14,635.8,70.4,238.9,6.4
2483.49,617.1,70.7,236.8,4.3
2485.83,601.2,70.8,235.7,2.0
2488.17,590.6,70.3,235.2,1.3
2490.52,586.3,69.1,234.9,3.4
2492.86,587.6,67.5,234.4,5.7
2495.20,592.8,65.8,233.1,7.9
2497.54,599.6,64.4,230.7,10.1
2499.88,606.4,63.5,227.2,12.3
2502.22,612.2,63.0,223.2,14.5
2504.55,616.9,62.7,219.6,16.8
2506.89,620.6,62.2,217.4,19.3
2509.22,623.5,61.7,217.3,21.8
2511.56,625.2,61.2,219.4,24.5
2513.89,626.0,61.0,223.3,27.2
2516.23,626.4,61.1,228.3,30.1
2518.56,627.7,61.5,233.8,32.9
2520.89,631.3,61.7,239.5,35.9
2523.22,638.5,61.6,245.3,39.0
2525.55,649.4,61.2,251.6,42.2
2527.88,663.6,60.6,259.0,45.4
2530.20,679.9,60.2,268.0,48.6
2532.53,697.6,60.1,279.2,51.9
2534.86,716.1,60.2,292.5,55.1
2537.18,735.2,60.3,307.5,58.3
2539.51,754.7,60.3,323.7,61.1
2541.83,774.0,59.9,340.3,63.5
2544.15,792.1,59.4,356.8,65.5
2546.47,807.5,59.0,372.5,67.2
2548.80,819.1,58.8,387.3,68.7
2551.12,826.6,59.1,401.1,70.2
2553.44,830.6,59.8,413.9,71.7
2555.75,832.8,60.8,425.5,73.3
2558.07,835.3,61.9,435.9,74.7
2560.39,840.3,62.8,445.1,75.9
2562.70,849.6,63.3,453.0,76.7
2565.02,863.9,63.3,459.6,77.1
2567.33,882.8,62.7,464.8,77.1
2569.65,904.4,61.5,468.4,76.8
2571.96,925.4,59.7,470.6,76.3
2574.27,941.7,57.8,471.1,75.6
2576.58,949.1,56.4,470.0,74.8
2578.89,945.0,56.0,467.3,74.0
2581.20,929.0,56.8,463.1,73.1
2583.51,903.7,58.6,457.4,72.4
2585.82,874.1,60.9,450.7,71.6
2588.12,846.0,62.7,443.4,70.9
2590.43,824.5,63.5,436.2,70.2
2592.73,812.1,62.8,429.6,69.4
2595.04,808.5,61.1,423.9,68.6
2597.34,811.3,58.8,418.9,67.7
2599.65,816.9,56.7,414.4,66.8
2601.95,822.8,55.4,410.0,66.0
2604.25,827.8,54.9,405.5,65.4
2606.55,832.9,54.8,401.3,64.8
2608.85,839.7,54.5,398.0,64.4
2611.15,849.2,53.6,396.7,64.0
2613.44,861.4,52.1,398.3,63.7
2615.74,874.8,50.4,403.6,63.2
2618.04,887.6,49.1,412.5,62.7
2620.33,898.5,48.7,424.5,62.2
2622.62,908.3,49.4,438.5,61.7
2624.92,919.6,50.8,453.3,61.2
2627.21,936.0,52.2,467.8,60.9
2629.50,960.8,53.1,481.7,60.8
2631.79,996.1,53.3,495.1,60.9
2634.08,1041.9,53.0,508.8,61.0
2636.37,1097.0,52.7,524.1,61.3
2638.66,1159.3,52.7,542.4,61.6
2640.95,1227.1,53.4,564.7,61.9
2643.24,1299.3,54.5,591.7,62.0
2645.52,1375.3,55.7,623.5,62.0
2647.81,1454.3,56.4,659.6,61.7
2650.09,1534.6,56.0,699.0,61.4
2652.37,1612.5,54.6,740.1,60.9
2654.66,1682.4,52.2,781.0,60.3
2656.94,1737.7,49.6,819.8,59.7
2659.22,1772.2,47.6,854.0,58.9
2661.50,1781.9,46.6,881.3,58.0
2663.78,1766.0,46.7,899.6,57.0
2666.06,1726.9,47.4,907.0,55.9
2668.33,1669.5,47.9,902.8,54.8
2670.61,1599.4,47.7,886.9,53.7
2672.89,1521.6,46.6,860.5,52.7
2675.16,1440.2,45.2,826.0,51.5
2677.44,1358.8,43.9,786.0,50.3
2679.71,1281.1,42.9,743.4,48.8
2681.98,1211.0,41.7,700.7,47.2
2684.26,1151.6,39.9,659.6,45.4
2686.53,1104.2,36.9,621.1,43.5
2688.80,1067.5,33.0,585.9,41.8
2691.07,1038.0,29.2,554.6,40.2
2693.34,1012.1,26.8,527.9,39.0
2695.60,988.4,26.7,507.4,37.9
2697.87,969.3,28.8,494.7,37.1
2700.14,960.6,32.2,491.3,36.3
2702.40,969.9,35.4,498.2,35.4
2704.67,1003.2,36.8,514.7,34.4
2706.93,1061.9,35.5,538.9,33.0
2709.19,1140.6,31.4,566.9,31.5
2711.45,1226.9,25.4,593.7,29.8
2713.72,1304.0,19.0,614.0,28.0
2715.98,1353.8,14.2,622.8,26.4
2718.23,1361.8,12.4,616.8,25.0
2720.49,1320.3,14.5,594.6,23.8
2722.75,1231.0,19.7,557.1,22.7
2725.01,1104.0,26.8,507.3,21.7
2727.27,954.6,34.1,449.3,20.6
2729.52,800.0,39.8,387.6,19.4
2731.78,654.6,42.9,326.6,17.9
2734.03,527.9,43.4,269.6,16.1
2736.28,423.3,41.6,218.7,14.2
2738.54,339.1,38.4,174.7,12.3
2740.79,271.1,34.5,137.6,10.5
2743.04,213.9,30.6,106.4,8.8
2745.29,163.5,26.9,79.6,7.3
2747.53,117.2,23.5,56.1,6.0
2749.78,73.6,20.3,34.6,4.8
2752.03,32.1,17.3,14.6,3.7
2754.28,4.2,5.9,0.0,0.0
2756.52,0.0,0.0,0.0,0.0
2758.77,0.0,0.0,0.0,0.0
2761.01,0.0,0.0,0.0,0.0
2763.25,0.0,0.0,0.0,0.0
2765.50,0.0,0.0,0.0,0.0
2766.94,0.0,0.0,0.0,0.0
2769.22,0.0,0.0,0.0,0.0
2771.50,0.0,0.0,0.0,0.0
2773.78,0.0,0.0,0.0,0.0
2776.06,0.0,0.0,0.0,0.0
2778.33,0.0,0.0,0.0,0.0
2780.61,0.0,0.0,0.0,0.0
2782.88,0.0,0.0,0.0,0.0
2785.15,0.0,0.0,0.0,0.0
2787.43,0.0,0.0,0.0,0.0
2789.70,0.0,0.0,0.0,0.0
2791.97,0.0,0.0,0.0,0.0
2794.24,0.0,0.0,0.0,0.0
2796.51,0.0,0.0,0.0,0.0
2798.78,0.0,0.0,0.0,0.0
2801.05,0.0,0.0,0.0,0.0
2803.32,0.0,0.0,0.0,0.0
2805.58,0.0,0.0,0.0,0.0
2807.85,0.0,0.0,0.0,0.0
2810.11,0.0,0.0,0.0,0.0
2812.38,0.0,0.0,0.0,0.0
2814.64,12.1,6.1,3.8,5.3
2816.91,149.1,11.6,66.6,10.7
2819.17,326.2,19.3,145.6,14.9
2821.43,549.0,28.4,242.1,19.8
2823.69,823.1,39.7,361.0,25.2
2825.95,1154.4,53.8,506.6,31.1
2828.21,1550.6,70.5,682.9,37.6
2830.47,2019.3,89.4,892.1,44.5
2832.73,2569.1,109.4,1135.6,52.0
2834.99,3204.3,129.8,1412.8,60.0
2837.24,3927.1,150.1,1722.3,68.6
2839.50,4732.8,170.3,2061.1,77.7
2841.75,5613.4,190.4,2425.6,87.3
2844.01,6555.5,210.5,2811.2,97.2
2846.26,7542.3,230.8,3212.5,107.4
2848.52,8554.1,251.8,3623.7,117.7
2850.77,9572.6,274.8,4039.6,128.0
2853.02,10581.4,300.9,4454.9,138.5
2855.27,11571.7,330.9,4866.0,148.9
2857.52,12541.4,363.7,5269.3,159.1
2859.77,13494.6,396.0,5661.3,168.6
2862.02,14434.5,422.3,6036.8,176.9
2864.27,15354.8,436.8,6388.3,183.6
2866.51,16228.8,435.6,6704.5,188.4
2868.76,17005.5,419.3,6970.7,191.2
2871.01,17613.1,393.5,7170.4,192.4
2873.25,17973.8,367.9,7288.2,192.6
2875.50,18023.1,352.5,7312.6,192.5
2877.74,17732.4,353.7,7239.8,192.4
2879.98,17123.1,372.3,7076.2,192.7
2882.23,16265.2,402.8,6837.7,193.1
2884.47,15263.0,435.9,6548.0,193.3
2886.71,14233.7,462.0,6234.9,192.8
2888.95,13284.6,474.6,5926.4,191.3
2891.19,12494.0,471.6,5646.3,188.7
2893.43,11902.9,455.0,5411.6,185.2
2895.66,11518.0,429.3,5231.7,181.0
2897.90,11317.2,399.5,5108.3,176.7
2900.14,11260.2,370.0,5037.1,172.7
2902.37,11299.0,344.4,5009.5,169.4
2904.61,11386.8,325.7,5015.7,167.2
2906.84,11486.7,316.1,5046.5,166.4
2909.07,11577.2,317.1,5095.0,167.1
2911.31,11656.4,329.4,5158.3,169.5
2913.54,11743.0,352.1,5237.8,173.5
2915.77,11874.0,382.4,5339.1,178.7
2918.00,12097.2,416.2,5470.2,184.9
2920.23,12460.9,448.2,5639.2,191.4
2922.46,13002.9,473.2,5852.5,197.9
2924.69,13736.2,487.6,6111.1,203.9
2926.92,14646.5,490.1,6410.9,209.1
2929.15,15686.4,482.4,6741.0,213.5
2931.37,16785.1,469.4,7086.5,217.5
2933.60,17858.4,457.6,7429.5,221.4
2935.82,18825.8,453.9,7753.1,225.8
2938.05,19627.2,463.3,8043.8,230.8
2940.27,20235.8,487.8,8293.9,236.5
2942.49,20660.7,524.9,8501.6,242.7
2944.71,20945.6,568.2,8671.3,249.0
2946.94,21151.2,609.0,8810.7,254.6
2949.16,21339.6,638.8,8928.8,259.3
2951.38,21554.0,652.5,9032.6,262.5
2953.60,21808.3,649.7,9125.6,264.2
2955.81,22085.3,635.1,9207.4,264.6
2958.03,22346.2,616.8,9273.9,264.1
2960.25,22545.0,602.7,9318.8,263.0
2962.47,22646.0,597.7,9336.2,261.7
2964.68,22633.8,602.4,9321.9,260.3
2966.90,22514.8,613.0,9274.3,258.8
2969.11,22312.2,623.5,9194.4,256.8
2971.32,22053.3,627.6,9084.9,254.1
2973.54,21757.9,621.7,8948.5,250.2
2975.75,21430.0,604.8,8786.4,245.0
2977.96,21056.5,578.9,8597.6,238.4
2980.17,20611.0,547.6,8378.8,230.5
2982.38,20061.3,515.0,8125.2,221.7
2984.59,19380.1,484.8,7832.2,212.3
2986.80,18549.9,459.1,7496.3,202.6
2989.01,17571.6,439.1,7117.8,192.7
2991.21,16462.5,423.8,6699.7,183.0
2993.42,15257.5,411.4,6249.9,173.3
2995.62,14000.2,398.9,5779.2,163.7
2997.83,12738.2,383.5,5300.9,154.1
3000.03,11514.3,363.5,4828.7,144.3
3002.24,10362.2,339.2,4376.0,134.5
3004.44,9302.3,312.8,3953.1,124.7
3006.64,8347.7,287.2,3568.4,115.2
3008.84,7504.9,265.2,3226.6,106.2
3011.04,6781.9,247.6,2931.3,98.1
3013.24,6185.3,233.4,2683.2,90.9
3015.44,5721.8,220.2,2482.8,84.6
3017.64,5392.0,205.6,2328.8,79.1
3019.84,5186.5,188.4,2218.1,74.0
3022.04,5084.5,168.8,2145.2,69.3
3024.23,5054.6,147.9,2101.9,64.8
3026.43,5059.6,127.2,2077.7,60.4
3028.62,5060.3,107.9,2061.0,56.2
3030.82,5020.1,91.1,2039.8,52.3
3033.01,4909.4,77.8,2003.8,48.8
3035.20,4709.3,68.8,1945.7,45.8
3037.40,4413.4,64.8,1861.8,43.2
3039.59,4030.0,65.6,1752.6,40.9
3041.78,3580.5,69.9,1621.9,38.8
3043.97,3096.7,75.5,1476.7,36.7
3046.16,2614.4,79.7,1325.1,34.4
3048.35,2165.9,80.2,1174.9,31.7
3050.53,1776.1,75.6,1032.7,28.5
3052.72,1457.4,66.0,902.6,25.0
3054.91,1209.1,52.5,786.5,21.1
3057.09,1019.6,37.1,683.3,17.3
3059.28,870.7,22.3,590.8,13.8
3061.46,743.5,10.4,506.1,10.7
3063.65,621.6,3.6,426.1,8.1
3065.83,495.3,4.1,348.7,6.0
3068.01,362.7,5.1,273.0,4.4
3070.19,227.0,5.0,198.9,3.0
3072.37,95.1,4.9,127.9,1.9
3074.55,0.0,0.0,61.4,1.0
3076.73,0.0,0.0,1.3,0.6
3078.91,0.0,0.0,0.0,0.0
3081.09,0.0,0.0,0.0,0.0
3083.27,0.0,0.0,0.0,0.0
3085.44,0.0,0.0,0.0,0.0
3087.62,0.0,0.0,0.0,0.0
3089.79,0.0,0.0,0.0,0.0
3091.97,0.0,0.0,0.0,0.0
3094.14,0.0,0.0,0.0,0.0
3096.32,0.0,0.0,0.0,0.0
3098.49,0.0,0.0,0.0,0.0
3100.66,0.0,0.0,0.0,0.0
3102.83,0.0,0.0,0.0,0.0
3105.00,0.0,0.0,0.0,0.0
3107.17,0.0,0.0,0.0,0.0
3109.34,0.0,0.0,0.0,0.0
3111.51,0.0,0.0,0.0,0.0
3113.68,0.0,0.0,0.0,0.0
3115.84,0.0,0.0,0.0,0.0
3118.01,0.0,0.0,0.0,0.0
3120.17,0.0,0.0,0.0,0.0
3122.34,0.0,0.0,0.0,0.0
3124.50,0.0,0.0,3.2,1.5
3126.67,0.0,0.0,5.5,1.3
3128.83,0.0,0.0,4.2,1.2
3130.99,0.0,0.0,0.5,0.7
3133.15,0.0,0.0,0.0,0.0
3135.31,0.0,0.0,0.0,0.0
3137.47,0.0,0.0,0.0,0.0
3139.63,0.0,0.0,0.0,0.0
3141.79,0.0,0.0,0.0,0.0
3143.95,0.0,0.0,0.0,0.0
3146.10,0.0,0.0,0.0,0.0
3148.26,38.9,9.1,0.0,0.0
3150.41,74.1,9.5,0.0,0.0
3152.57,91.8,8.2,8.2,1.3
3154.72,93.9,6.4,33.0,1.3
3156.88,86.0,5.9,58.7,1.4
3159.03,75.3,7.6,82.8,1.6
3161.18,68.7,9.5,103.8,1.9
3163.33,70.9,10.5,120.7,2.4
3165.48,83.4,10.4,133.5,3.0
3167.63,104.8,9.8,142.8,3.6
3169.78,131.2,9.2,149.8,4.1
3171.93,158.0,9.0,155.5,4.4
3174.08,181.1,9.2,160.3,4.6
3176.23,198.1,9.7,164.8,4.7
3178.37,208.6,10.7,168.9,4.8
3180.52,214.5,12.3,172.6,4.8
3182.66,219.6,14.5,175.9,4.8
3184.81,228.2,16.7,179.2,4.8
3186.95,244.2,18.4,183.1,4.7
3189.10,269.7,19.3,187.9,4.6
3191.24,304.1,19.3,194.1,4.4
3193.38,344.4,18.9,201.6,4.2
3195.52,386.2,18.7,210.1,3.9
3197.66,425.1,18.9,219.0,3.7
3199.80,458.0,19.8,227.8,3.5
3201.94,484.0,21.2,236.2,3.4
3204.08,503.5,22.9,244.1,3.3
3206.21,518.5,24.8,251.7,3.2
3208.35,531.2,26.6,259.0,3.1
3210.49,543.5,28.2,266.5,3.0
3212.62,557.2,29.7,274.2,2.9
3214.76,573.6,31.0,282.1,2.7
3216.89,593.2,31.9,290.0,2.6
3219.03,615.5,32.3,297.9,2.4
3221.16,638.8,32.2,305.4,2.2
3223.29,660.5,32.0,312.4,2.1
3225.42,677.2,31.9,318.8,1.9
3227.55,686.4,32.3,324.6,1.8
3229.68,686.9,33.3,329.8,1.7
3231.81,679.6,35.0,334.5,1.5
3233.94,667.2,37.1,338.8,1.4
3236.07,653.9,39.3,342.6,1.3
3238.19,643.8,41.2,346.1,1.2
3240.32,640.4,42.6,349.2,1.2
3242.45,645.3,43.2,352.1,1.2
3244.57,658.2,43.3,354.9,1.6
3246.70,676.9,43.0,358.1,1.6
3248.82,698.4,42.9,358.3,2.3
3250.94,719.3,43.0,354.6,2.6
3253.07,737.1,43.7,347.2,2.7
3255.19,750.6,44.7,338.2,2.7
3257.31,759.5,46.0,329.6,2.8
3259.43,764.5,47.2,323.5,2.9
3261.55,766.8,48.2,321.2,3.4
3263.67,767.4,49.0,322.9,4.4
3265.78,767.7,49.4,325.3,5.0
3267.90,768.5,49.5,327.4,5.4
3270.02,770.6,49.5,328.5,5.7
3272.14,774.5,49.3,328.9,6.1
3274.25,780.0,48.8,328.3,6.4
3276.36,786.7,48.2,326.5,6.6
3278.48,793.2,47.4,324.1,6.8
3280.59,798.0,46.6,321.7,6.9
3282.71,799.4,46.0,319.9,7.1
3284.82,796.4,45.7,319.1,7.4
3286.93,789.1,45.9,319.2,7.7
3289.04,778.7,46.4,319.8,8.1
3291.15,767.3,46.8,320.2,8.6
3293.26,757.1,46.6,320.0,8.7
3295.37,749.8,45.6,318.9,8.5
3297.47,745.9,44.1,320.7,8.4
3299.58,745.5,42.1,326.4,8.8
3301.69,747.7,40.0,335.3,9.2
3303.79,752.1,38.0,346.0,9.6
3305.90,758.0,36.1,356.9,10.1
3308.00,764.7,34.3,365.9,10.7
3310.11,771.3,32.4,371.2,10.9
3312.21,777.1,30.9,372.6,10.8
3314.31,781.7,29.6,373.2,10.4
3316.41,785.8,28.4,373.2,10.2
3318.52,790.5,27.4,372.4,9.6
3320.62,797.2,26.3,370.6,8.8
3322.72,806.8,24.9,367.7,8.1
3324.81,818.9,23.1,363.8,7.4
3326.91,831.9,21.1,359.1,6.7
3329.01,843.2,19.1,353.8,6.2
3331.11,850.2,17.2,348.2,5.6
3333.20,851.5,15.5,342.4,5.1
3335.30,846.7,14.1,336.9,4.7
3337.40,836.9,12.9,331.8,4.4
3339.49,824.3,11.8,327.6,4.2
3341.58,811.3,10.5,324.5,4.2
3343.68,800.3,9.0,322.8,4.3
3345.77,792.5,7.2,322.5,4.6
3347.86,788.4,5.1,323.6,4.9
3349.95,787.5,2.7,325.6,5.4
3352.04,789.0,0.4,328.2,5.9
3354.13,791.2,2.0,331.0,6.4
3356.22,793.1,4.1,333.4,7.0
3358.31,793.8,5.9,335.1,7.7
3360.39,793.5,7.6,335.6,8.3
3362.48,792.7,9.3,334.6,8.9
3364.57,791.9,11.1,331.8,9.6
3366.65,791.5,13.2,327.2,10.2
3368.74,791.0,15.6,320.9,10.9
3370.82,789.3,18.1,313.4,11.6
3372.91,785.0,20.6,305.3,12.4
3374.99,777.0,22.8,297.3,13.2
3377.07,765.4,24.5,290.2,14.1
3379.15,751.4,25.8,284.7,14.9
3381.23,737.4,27.0,281.0,15.6
3383.31,725.6,28.3,279.2,16.1
3385.39,717.9,29.9,278.7,16.4
3387.47,713.9,32.0,278.8,16.6
3389.55,711.9,34.5,278.7,16.7
3391.63,708.7,37.1,277.8,16.8
3393.70,701.3,39.3,275.4,17.0
3395.78,687.6,41.0,271.5,17.4
3397.85,667.7,42.2,266.3,17.8
3399.93,643.0,43.0,260.5,18.2
3402.00,616.3,43.9,254.7,18.6
3404.08,590.5,45.0,249.6,18.9
3406.15,567.9,46.4,245.8,19.3
3408.22,549.9,48.1,243.3,19.6
3410.29,536.7,49.9,242.1,19.9
3412.36,528.0,51.8,241.9,20.2
3414.43,523.1,53.7,242.5,20.5
3416.50,521.1,55.6,243.6,20.9
3418.57,521.2,57.4,244.8,21.3
3420.64,522.4,59.2,246.1,21.7
3422.71,524.0,60.9,247.2,22.1
3424.77,525.4,62.5,247.9,22.4
3426.84,526.0,64.2,247.7,22.7
3428.90,526.3,65.6,246.3,23.0
3430.97,527.3,66.6,243.3,23.3
3433.03,530.0,66.9,238.6,23.6
3435.09,535.0,66.4,232.0,24.0
3437.16,542.6,65.4,223.9,24.4
3439.22,552.1,64.0,214.7,24.8
3441.28,562.2,62.4,205.0,25.2
3443.34,571.0,60.9,195.7,25.6
3445.40,577.2,59.5,187.2,25.9
3447.46,579.8,58.1,179.9,26.2
3449.52,578.3,56.7,174.1,26.5
3451.58,572.7,55.2,169.5,26.8
3453.63,563.7,53.7,165.8,27.1
3455.69,552.1,52.4,162.8,27.4
3457.75,538.9,51.3,160.0,27.8
3459.80,524.5,50.3,157.1,28.2
3461.86,508.7,49.3,154.2,28.4
3463.91,491.5,48.4,151.1,28.6
3465.96,472.8,47.4,148.1,28.8
3468.02,453.5,46.2,145.2,28.8
3470.07,435.1,45.1,142.6,28.9
3472.12,418.9,44.3,140.4,29.1
3474.17,405.0,43.8,138.6,29.2
3476.22,392.1,43.7,137.3,29.2
3478.27,377.6,43.5,136.6,28.9
3480.32,358.9,43.0,136.6,28.5
3482.36,335.5,41.7,137.4,27.9
3484.41,309.5,39.9,139.0,27.3
3486.46,285.8,37.9,141.4,26.6
3488.50,269.9,36.3,144.3,26.1
3490.55,266.1,35.2,147.3,25.6
3492.59,275.6,34.6,150.1,25.1
3494.64,296.5,34.4,152.0,24.5
3496.68,323.8,34.4,152.8,23.8
3498.72,351.9,34.4,152.4,23.0
3500.77,375.9,34.1,150.8,22.1
3502.81,392.1,33.5,148.4,21.1
3504.85,399.2,32.5,145.3,20.2
3506.89,397.4,31.4,141.9,19.4
3508.93,387.7,30.3,138.4,18.6
3510.97,372.1,29.4,134.8,17.8
3513.00,352.7,28.5,131.1,17.0
3515.04,331.5,27.7,127.6,16.1
3517.08,310.1,27.1,124.1,15.3
3519.11,290.2,26.5,120.6,14.5
3521.15,272.7,26.0,117.2,13.7
3523.18,258.2,25.6,113.6,12.9
3525.22,246.9,25.3,110.0,12.0
3527.25,238.4,24.9,106.2,11.2
3529.28,232.2,24.6,102.0,10.4
3531.31,227.9,24.1,97.1,9.5
3533.35,225.1,23.7,91.3,8.6
3535.38,223.5,23.2,84.3,7.8
3537.41,222.9,22.8,76.1,7.0
3539.44,222.8,22.4,66.8,6.3
3541.46,223.0,22.0,57.0,5.7
3543.49,223.3,21.6,47.6,5.2
3545.52,223.2,21.4,39.5,4.9
3547.55,222.3,21.3,33.3,4.7
3549.57,219.6,21.3,29.5,4.6
3551.60,213.7,21.5,28.0,4.6
3553.62,203.4,21.5,28.3,4.7
3555.65,188.4,21.1,29.7,4.6
3557.67,169.7,20.2,31.4,4.6
3559.69,150.2,19.1,32.8,4.6
3561.71,133.7,18.2,33.4,4.7
3563.74,123.9,17.5,32.9,4.7
3565.76,122.5,17.3,31.4,4.7
3567.78,129.6,17.5,29.0,4.7
3569.80,143.2,18.0,26.1,4.6
3571.81,160.4,18.7,23.2,4.5
3573.83,177.7,19.2,20.7,4.4
3575.85,192.6,19.5,19.0,4.4
3577.87,203.1,19.6,18.5,4.3
3579.88,208.6,19.3,19.2,4.4
3581.90,209.1,18.7,20.8,4.5
3583.91,205.9,17.9,22.7,4.5
3585.93,201.0,17.1,24.6,4.6
3587.94,196.6,16.4,25.6,4.6
3589.95,194.6,16.1,25.5,4.5
3591.97,196.2,16.1,24.1,4.4
3593.98,201.2,16.5,21.5,4.2
3595.99,208.4,17.0,18.2,4.1
3598.00,216.3,17.5,14.4,4.0
3600.01,223.7,17.7,10.8,4.0
3602.02,229.7,17.8,7.7,4.1
3604.03,234.4,17.6,5.3,4.2
3606.03,238.1,17.6,4.2,3.7
3608.04,240.9,17.7,3.6,3.6
3610.05,242.9,17.9,3.5,3.8
3612.05,244.0,18.3,3.7,4.1
3614.06,243.7,18.7,4.2,4.6
3616.06,241.7,19.1,4.7,5.1
3618.06,237.6,19.6,5.5,5.5
3620.07,231.3,20.0,6.3,5.7
3622.07,222.6,20.3,6.7,6.0
3624.07,211.5,20.4,6.9,6.3
3626.07,198.3,20.3,7.0,6.5
3628.07,183.9,20.0,7.0,6.6
3630.07,169.3,19.7,7.2,6.7
3632.07,156.0,19.4,7.6,6.6
3634.07,145.2,19.3,8.5,6.5
3636.07,137.8,19.3,9.9,6.4
3638.07,134.2,19.5,11.8,6.3
3640.06,134.1,19.7,14.2,6.2
3642.06,137.1,20.0,17.1,6.2
3644.05,142.5,20.2,20.2,6.2
3646.05,149.6,20.4,23.4,6.1
3648.04,157.6,20.6,26.8,6.1
3650.04,165.7,20.9,30.1,6.1
3652.03,172.9,21.3,33.6,6.0
3654.02,178.1,21.8,37.1,5.9
3656.01,180.0,22.4,40.7,5.8
3658.00,177.1,23.1,44.1,5.6
3659.99,168.5,23.6,47.3,5.5
3661.98,153.5,24.0,50.1,5.5
3663.97,132.8,24.0,52.3,5.5
3665.96,108.4,24.0,53.9,5.5
3667.95,83.0,24.0,54.9,5.6
3669.93,59.5,24.2,55.3,5.8
3671.92,40.3,24.8,55.3,5.9
3673.90,29.6,21.8,54.9,6.1
3675.89,24.8,18.1,54.1,6.3
3677.87,22.7,16.4,53.1,6.6
3679.86,22.5,16.1,51.9,6.8
3681.84,23.6,16.8,50.5,7.1
3683.82,26.1,18.5,49.0,7.3
3685.80,30.5,21.6,47.2,7.6
3687.78,41.8,19.5,45.1,7.8
3689.76,57.0,16.9,42.8,8.1
3691.74,74.4,14.8,40.0,8.3
3693.72,91.7,13.0,36.8,8.6
3695.70,106.0,11.4,33.0,8.9
3697.68,114.3,9.6,28.8,9.1
3699.66,114.0,7.4,24.2,9.4
3701.63,104.3,4.7,19.7,9.8
3703.61,86.1,2.8,15.3,10.1
3705.58,62.0,5.2,11.6,10.4
3707.56,36.0,9.2,8.8,10.8
3709.53,11.9,13.1,7.7,10.8
3711.50,5.6,7.9,7.8,11.1
3713.48,3.3,4.7,8.6,11.8
3715.45,3.7,5.2,11.1,12.1
3717.42,6.4,9.1,14.9,12.2
3719.39,11.2,15.9,19.3,12.1
3721.36,17.3,24.5,24.1,11.9
3723.33,26.1,31.9,28.7,11.7
3725.30,40.5,34.4,32.9,11.5
3727.27,50.7,37.4,36.3,11.3
3729.23,55.8,41.1,38.8,11.2
3731.20,56.4,45.4,40.4,11.1
3733.17,54.9,50.1,41.3,10.9
3735.13,54.2,54.8,41.5,10.7
3737.10,56.4,58.5,41.2,10.5
3739.06,61.9,60.6,40.4,10.3
3741.03,69.7,61.0,39.2,10.1
3742.99,77.5,60.3,37.8,9.8
3744.95,82.8,59.0,36.2,9.7
3746.91,84.0,57.7,34.8,9.5
3748.87,81.1,56.9,33.9,9.3
3750.83,75.4,56.8,33.8,9.2
3752.79,68.4,56.7,34.8,9.0
3754.75,62.2,56.4,36.8,8.7
3756.71,58.5,55.9,39.8,8.5
3758.67,58.3,55.1,43.4,8.2
3760.63,62.1,53.8,47.1,8.0
3762.58,69.4,52.3,50.4,7.7
3764.54,78.9,50.5,53.0,7.4
3766.49,88.8,48.6,54.6,7.2
3768.45,96.9,46.9,55.1,7.0
3770.40,101.5,45.8,54.6,6.8
3772.35,102.3,45.0,53.4,6.6
3774.31,99.9,44.6,51.5,6.3
3776.26,95.4,44.2,49.1,6.0
3778.21,90.4,43.5,46.3,5.6
3780.16,86.0,42.7,42.9,5.2
3782.11,82.7,41.5,38.9,4.8
3784.06,80.2,40.2,34.1,4.4
3786.01,78.2,39.1,28.6,4.0
3787.96,76.6,38.2,22.5,3.7
3789.91,75.2,37.3,16.1,3.3
3791.85,74.4,36.5,9.9,3.0
3793.80,74.5,35.7,4.2,2.6
3795.74,75.5,34.7,0.9,1.3
3797.69,77.2,33.4,0.0,0.0
3799.63,78.8,32.1,0.0,0.0
3801.58,79.0,30.8,0.0,0.0
3803.52,77.0,29.8,0.0,0.0
3805.46,72.5,29.1,0.0,0.0
3807.41,66.0,28.7,0.0,0.0
3809.35,58.7,28.3,0.0,0.0
3811.29,52.0,27.8,0.0,0.0
3813.23,46.8,26.9,0.0,0.0
3815.17,43.2,25.8,0.0,0.0
3817.11,40.5,24.5,0.6,0.9
3819.04,38.0,23.4,3.2,1.9
3820.98,34.9,22.6,9.0,2.1
3822.92,31.5,22.0,16.6,2.4
3824.85,28.0,21.5,25.6,2.8
3826.79,25.1,20.9,35.1,3.2
3828.72,23.2,20.2,44.4,3.7
3830.66,22.3,19.4,52.6,4.3
3832.59,22.1,18.7,59.0,4.9
3834.53,22.5,18.2,63.6,5.5
3836.46,24.0,17.9,66.2,6.1
3838.39,26.9,17.5,67.0,6.8
3840.32,31.9,16.9,66.3,7.5
3842.25,38.4,16.0,64.4,8.2
3844.18,45.4,14.8,61.5,9.0
3846.11,51.2,13.5,58.1,9.8
3848.04,53.7,12.6,54.4,10.6
3849.97,52.0,12.0,50.8,11.4
3851.89,46.2,12.0,47.7,12.2
3853.82,38.0,12.4,45.4,13.1
3855.75,29.8,12.9,43.8,14.0
3857.67,24.5,13.1,42.8,15.0
3859.60,24.1,12.9,42.3,16.0
3861.52,29.1,12.1,42.1,16.9
3863.44,38.8,10.8,42.0,17.5
3865.37,50.9,9.4,41.7,17.8
3867.29,62.6,8.2,41.1,17.9
3869.21,71.4,7.3,39.8,17.8
3871.13,75.5,6.7,37.9,17.6
3873.05,74.1,6.5,35.3,17.5
3874.97,68.1,6.7,31.9,17.5
3876.89,59.7,7.3,28.1,17.5
3878.81,51.9,8.0,24.1,17.5
3880.73,48.1,8.6,20.2,17.5
3882.64,50.4,8.4,17.1,17.0
3884.56,59.3,7.4,15.1,16.4
3886.48,73.1,5.9,13.6,16.1
3888.39,88.8,4.6,12.7,16.1
3890.31,102.8,3.8,12.2,16.4
3892.22,112.6,3.5,12.0,16.8
3894.14,117.6,3.4,12.0,17.0
3896.05,118.8,3.6,11.9,16.8
3897.96,118.3,4.0,11.5,16.2
3899.87,118.2,4.1,10.6,15.0
3901.78,119.5,3.5,9.5,13.4
3903.69,121.7,2.6,8.2,11.5
3905.60,123.5,1.9,6.8,9.7
3907.51,123.1,1.8,5.7,8.1
3909.42,118.8,2.2,5.0,7.1
3911.33,110.1,2.6,5.6,6.3
3913.23,96.8,2.7,7.5,6.2
3915.14,79.8,2.8,12.0,5.3
3917.05,60.4,2.8,17.7,4.7
3918.95,40.1,2.9,24.2,4.5
3920.86,20.5,2.9,30.7,4.7
3922.76,3.4,2.7,36.6,5.3
3924.66,0.0,0.0,41.0,6.1
3926.57,0.0,0.0,43.5,7.1
3928.47,0.0,0.0,43.7,8.3
3930.37,0.0,0.0,41.8,9.6
3932.27,0.6,0.9,38.3,11.0
3934.17,12.5,6.0,34.1,12.4
3936.07,29.2,7.3,30.1,13.8
3937.97,44.5,8.5,27.0,15.1
3939.87,56.0,9.3,25.2,16.4
3941.77,62.4,9.5,24.8,17.6
3943.66,63.4,9.3,25.4,18.8
3945.56,59.9,8.8,26.6,20.0
3947.46,53.6,8.2,27.7,21.2
3949.35,46.7,7.5,28.3,22.5
3951.25,41.7,6.9,28.5,23.6
3953.14,40.6,6.7,28.9,24.1
3955.04,44.7,6.9,29.5,24.7
3956.93,54.0,7.7,30.8,25.8
3958.82,67.1,9.0,33.2,27.6
3960.71,81.3,10.5,37.2,30.3
3962.60,93.5,11.7,43.5,33.0
3964.49,101.4,12.2,53.0,34.4
3966.38,104.1,12.0,63.9,35.7
3968.27,102.7,11.3,75.4,37.2
3970.16,99.1,10.6,86.9,38.7
3972.05,95.8,10.2,97.7,40.2
3973.94,94.4,10.4,107.6,41.8
3975.82,95.3,11.1,116.5,43.3
3977.71,97.8,12.1,124.3,44.9
3979.60,100.2,13.2,131.1,46.3
3981.48,101.0,14.2,136.8,47.8
3983.36,99.0,14.6,141.3,49.2
3985.25,94.2,14.3,144.4,50.5
3987.13,88.1,13.3,146.2,51.9
3989.01,83.7,12.0,146.4,53.3
3990.89,84.8,10.7,145.3,54.6
3992.78,93.3,9.9,143.1,55.9
3994.66,111.3,9.9,140.1,57.3
3996.54,141.3,10.9,136.5,58.6
3998.42,185.4,13.7,132.5,59.8
